Timestamp(ms),isGoodSignal,filteredIntensity,rrIntervals_count,medianRrMs,rawBpm,filteredBpm
21,true,-6.816516110673817,5,466.6666666666667,128.57142857142856,117.3168471900664
54,true,-6.5722932074903895,5,466.6666666666667,128.57142857142856,120.69322160447504
90,true,-6.293921290259945,5,466.6666666666667,128.57142857142856,123.05668369456109
120,true,-6.026126143381816,5,466.6666666666667,128.57142857142856,124.71110715762131
155,true,-5.725025454870149,5,466.6666666666667,128.57142857142856,125.86920358176349
190,true,-5.486653849526846,5,466.6666666666667,128.57142857142856,126.67987107866298
225,true,-5.4606825201268805,5,466.6666666666667,128.57142857142856,127.24733832649264
257,true,-5.65679449386738,5,466.6666666666667,128.57142857142856,127.6445653999734
290,true,-5.92097078102023,5,466.6666666666667,128.57142857142856,127.92262435140995
320,true,-6.241325921043469,5,466.6666666666667,128.57142857142856,128.1172656174155
361,true,-6.584993741643046,5,466.6666666666667,128.57142857142856,128.2535145036194
388,true,-6.745273171967895,5,466.6666666666667,128.57142857142856,128.34888872396215
422,true,-6.8256915189680285,5,466.6666666666667,128.57142857142856,128.41565067820207
453,true,-6.805546227764893,5,466.6666666666667,128.57142857142856,128.46238404617
489,true,-6.7925700057911484,5,466.6666666666667,128.57142857142856,128.49509740374756
523,true,-6.71762502432756,5,466.6666666666667,128.57142857142856,128.51799675405186
556,true,-6.627429729563488,6,600.0,100.0,128.53402629926487
597,true,-6.4280987064806965,6,600.0,100.0,119.9738184094854
628,true,-6.2600506126736235,6,600.0,100.0,113.98167288663977
659,true,-6.063199757933106,6,600.0,100.0,109.78717102064783
691,true,-5.848001976132778,6,600.0,100.0,106.85101971445347
727,true,-5.624681574945953,6,600.0,100.0,104.79571380011743
758,true,-5.414578885326236,6,600.0,100.0,103.3569996600822
787,true,-5.207856200794083,6,600.0,100.0,102.34989976205753
822,true,-4.961374273005674,6,600.0,100.0,101.64492983344027
866,true,-4.71403664171676,6,600.0,100.0,101.15145088340819
898,true,-4.463328764655472,6,600.0,100.0,100.80601561838573
930,true,-4.225470571868513,6,600.0,100.0,100.56421093287001
958,true,-3.996331149123776,6,600.0,100.0,100.394947653009
992,true,-4.0082290562931036,6,600.0,100.0,100.2764633571063
1024,true,-4.1917018412818265,5,533.3333333333334,112.49999999999999,100.1935243499744
1064,true,-4.4375629643446075,5,533.3333333333334,112.49999999999999,103.88546704498208
1098,true,-4.727885270554992,5,533.3333333333334,112.49999999999999,106.46982693148743
1128,true,-4.997988261465835,5,533.3333333333334,112.49999999999999,108.2788788520412
1161,true,-5.100255089300489,5,533.3333333333334,112.49999999999999,109.54521519642884
1191,true,-5.014967093072173,5,533.3333333333334,112.49999999999999,110.43165063750018
1226,true,-4.868185212441659,5,533.3333333333334,112.49999999999999,111.05215544625011
1257,true,-4.687491915111863,5,533.3333333333334,112.49999999999999,111.48650881237506
1294,true,-4.562488156976798,5,533.3333333333334,112.49999999999999,111.79055616866253
1331,true,-4.441219547284675,5,533.3333333333334,112.49999999999999,112.00338931806377
1359,true,-4.360908336021097,5,533.3333333333334,112.49999999999999,112.15237252264461
1392,true,-4.2849660145897275,5,533.3333333333334,112.49999999999999,112.25666076585122
1428,true,-4.181447196422312,5,533.3333333333334,112.49999999999999,112.32966253609584
1476,true,-4.032341585790121,5,533.3333333333334,112.49999999999999,112.38076377526707
1493,true,-3.842637917167707,5,533.3333333333334,112.49999999999999,112.41653464268694
1523,true,-3.6172436537788286,5,533.3333333333334,112.49999999999999,112.44157424988086
1557,true,-3.338607817602778,5,533.3333333333334,112.49999999999999,112.45910197491659
1595,true,-3.069007235804591,5,533.3333333333334,112.49999999999999,112.47137138244159
1626,true,-2.8129684395195227,5,533.3333333333334,112.49999999999999,112.4799599677091
1657,true,-2.5759416597058618,5,533.3333333333334,112.49999999999999,112.48597197739636
1701,true,-2.3384653251993797,5,533.3333333333334,112.49999999999999,112.49018038417745
1725,true,-2.275428798362256,4,533.3333333333334,112.49999999999999,112.49312626892421
1760,true,-2.4308660435388276,4,533.3333333333334,112.49999999999999,112.49518838824693
1793,true,-2.697599455019997,4,533.3333333333334,112.49999999999999,112.49663187177285
1826,true,-3.0380411345163623,4,533.3333333333334,112.49999999999999,112.49764231024099
1901,true,-3.3642895707589844,4,533.3333333333334,112.49999999999999,112.49834961716869
1929,true,-3.59689993766645,4,533.3333333333334,112.49999999999999,112.49884473201806
2006,true,-3.589223496223582,4,533.3333333333334,112.49999999999999,112.49919131241262
2027,true,-3.489622754836688,4,533.3333333333334,112.49999999999999,112.49943391868882
2108,true,-3.3424588622134763,4,533.3333333333334,112.49999999999999,112.49960374308216
2128,true,-3.2344209273415743,4,533.3333333333334,112.49999999999999,112.49972262015751
2195,true,-3.0756730312619425,4,533.3333333333334,112.49999999999999,112.49980583411025
2223,true,-2.9232095306802535,4,533.3333333333334,112.49999999999999,112.49986408387716
2301,true,-2.7248269107692806,4,533.3333333333334,112.49999999999999,112.49990485871399
2324,true,-2.4827301921888107,4,533.3333333333334,112.49999999999999,112.49993340109978
2408,true,-2.214486595421789,4,533.3333333333334,112.49999999999999,112.49995338076982
2438,true,-1.9262883246922655,4,533.3333333333334,112.49999999999999,112.49996736653887
2497,true,-1.9253267144531634,4,533.3333333333334,112.49999999999999,112.49997715657719
2529,true,-2.0838827810284926,4,533.3333333333334,112.49999999999999,112.49998400960402
2606,true,-2.292661540861971,4,533.3333333333334,112.49999999999999,112.4999888067228
2632,true,-2.561449163468069,4,533.3333333333334,112.49999999999999,112.49999216470596
2702,true,-2.8445586308119317,4,733.3333333333333,81.81818181818183,112.49999451529416
2724,true,-2.836085292597204,4,733.3333333333333,81.81818181818183,103.29545070616045
2800,true,-2.734738008981779,4,733.3333333333333,81.81818181818183,96.85227003976686
2829,true,-2.6246802493753307,4,733.3333333333333,81.81818181818183,92.34204357329135
2897,true,-2.4735306139079825,4,733.3333333333333,81.81818181818183,89.18488504675848
2931,true,-2.350171399237965,4,733.3333333333333,81.81818181818183,86.97487407818548
2964,true,-2.2320846415062903,4,733.3333333333333,81.81818181818183,85.42786640018437
2996,true,-2.070976687044748,4,733.3333333333333,81.81818181818183,84.3449610255836
3028,true,-1.8720240925544687,4,733.3333333333333,81.81818181818183,83.58692726336307
3059,true,-1.6669114522791517,4,733.3333333333333,81.81818181818183,83.0563036298087
3091,true,-1.4647089593804594,4,733.3333333333333,81.81818181818183,82.68486708632062
3125,true,-1.2793085512770404,4,733.3333333333333,81.81818181818183,82.42486150587898
3157,true,-1.1082677801539091,4,733.3333333333333,81.81818181818183,82.24285759956983
3192,true,-0.9226383791242228,4,733.3333333333333,81.81818181818183,82.11545486515342
3221,true,-0.8508691469513536,4,733.3333333333333,81.81818181818183,82.02627295106194
3258,true,-1.0076132265590587,4,733.3333333333333,81.81818181818183,81.96384561119791
3292,true,-1.283584690674374,4,733.3333333333333,81.81818181818183,81.92014647329307
3325,true,-1.6016042919527678,4,733.3333333333333,81.81818181818183,81.8895570767597
3355,true,-1.9536316270633165,2,300.0,200.0,81.86814449918634
3397,true,-2.2184705772640996,2,300.0,200.0,81.86814449918634
3430,true,-2.2483964482200065,2,300.0,200.0,81.86814449918634
3461,true,-2.133386955400553,2,300.0,200.0,81.86814449918634
3490,true,-1.9646289895251385,2,300.0,200.0,81.86814449918634
3525,true,-1.8087159015778553,2,300.0,200.0,81.86814449918634
3564,true,-1.6640827624713523,2,300.0,200.0,81.86814449918634
3588,true,-1.563841153651481,2,300.0,200.0,81.86814449918634
3624,true,-1.4963418680913492,2,300.0,200.0,81.86814449918634
3657,true,-1.4288650315501457,2,300.0,200.0,81.86814449918634
3697,true,-1.3271513858542505,3,300.0,200.0,81.86814449918634
3728,true,-1.181126388548904,3,300.0,200.0,81.86814449918634
3759,true,-0.9899263366098126,3,300.0,200.0,81.86814449918634
3794,true,-0.7699712382918165,3,300.0,200.0,81.86814449918634
3823,true,-0.544882170513489,3,300.0,200.0,81.86814449918634
3857,true,-0.32884959872117747,3,300.0,200.0,81.86814449918634
3894,true,-0.13176129986162266,3,300.0,200.0,81.86814449918634
3923,true,0.08537539878334144,3,300.0,200.0,81.86814449918634
3960,true,0.21647965942260328,3,300.0,200.0,81.86814449918634
3995,true,0.14028523749193766,3,300.0,200.0,81.86814449918634
4039,true,-0.07791081883942752,3,300.0,200.0,81.86814449918634
4067,true,-0.33328372777745585,2,300.0,200.0,81.86814449918634
4088,true,-0.6273847541779531,2,300.0,200.0,81.86814449918634
4123,true,-0.8846822249648625,2,300.0,200.0,81.86814449918634
4158,true,-0.93119620354814,1,300.0,200.0,81.86814449918634
4189,true,-0.828282850107712,1,300.0,200.0,81.86814449918634
4225,true,-0.6528896048972115,1,300.0,200.0,81.86814449918634
4258,true,-0.48709101508883634,1,300.0,200.0,81.86814449918634
4288,true,-0.31858415748519064,1,300.0,200.0,81.86814449918634
4322,true,-0.1829448991962721,1,300.0,200.0,81.86814449918634
4357,true,-0.0748747939187524,1,300.0,200.0,81.86814449918634
4389,true,0.02021232258739758,1,300.0,200.0,81.86814449918634
4423,true,0.13633919593803512,1,300.0,200.0,81.86814449918634
4454,true,0.29368514415972413,3,433.33333333333337,138.46153846153845,81.86814449918634
4492,true,0.48780109124835747,3,433.33333333333337,138.46153846153845,81.86814449918634
4524,true,0.7014935188149138,3,433.33333333333337,138.46153846153845,81.86814449918634
4557,true,0.9201085804032516,3,433.33333333333337,138.46153846153845,81.86814449918634
4592,true,1.1435985503322286,3,433.33333333333337,138.46153846153845,81.86814449918634
4622,true,1.356774424585737,3,433.33333333333337,138.46153846153845,81.86814449918634
4656,true,1.5590719058829308,3,433.33333333333337,138.46153846153845,81.86814449918634
4696,true,1.7171782847629231,3,433.33333333333337,138.46153846153845,81.86814449918634
4723,true,1.7370063947112726,3,433.33333333333337,138.46153846153845,81.86814449918634
4760,true,1.560268073172736,2,400.0,150.0,81.86814449918634
4788,true,1.3042109427954216,2,400.0,150.0,81.86814449918634
4829,true,1.0194209316028662,2,400.0,150.0,81.86814449918634
4867,true,0.7232064616240166,3,533.3333333333334,112.49999999999999,81.86814449918634
4890,true,0.562473201305778,3,533.3333333333334,112.49999999999999,81.86814449918634
4919,true,0.5924145437911648,3,533.3333333333334,112.49999999999999,81.86814449918634
4961,true,0.7117210866621946,3,533.3333333333334,112.49999999999999,81.86814449918634
4990,true,0.8551706163507617,3,533.3333333333334,112.49999999999999,81.86814449918634
5023,true,1.009833752516883,3,533.3333333333334,112.49999999999999,81.86814449918634
5055,true,1.1200789528365505,3,533.3333333333334,112.49999999999999,81.86814449918634
5091,true,1.2065221430140838,3,533.3333333333334,112.49999999999999,81.86814449918634
5127,true,1.2846745503198491,3,533.3333333333334,112.49999999999999,81.86814449918634
5157,true,1.3685792779254768,3,533.3333333333334,112.49999999999999,81.86814449918634
5191,true,1.4886779987896972,2,533.3333333333334,112.49999999999999,81.86814449918634
5274,true,1.7090497228637105,2,533.3333333333334,112.49999999999999,81.86814449918634
5295,true,1.852672758572126,2,533.3333333333334,112.49999999999999,81.86814449918634
5368,true,1.9258061632104102,2,533.3333333333334,112.49999999999999,81.86814449918634
5392,true,1.983559623443412,2,533.3333333333334,112.49999999999999,81.86814449918634
5465,true,1.923308554974625,2,533.3333333333334,112.49999999999999,81.86814449918634
5496,true,1.654803665094434,2,533.3333333333334,112.49999999999999,81.86814449918634
5563,true,1.2646838427251197,2,533.3333333333334,112.49999999999999,81.86814449918634
5596,true,0.8454559721848227,2,533.3333333333334,112.49999999999999,81.86814449918634
5662,true,0.4582650401055446,2,533.3333333333334,112.49999999999999,81.86814449918634
5699,true,0.18443390899993517,2,533.3333333333334,112.49999999999999,81.86814449918634
5731,true,0.10905259903178433,2,533.3333333333334,112.49999999999999,81.86814449918634
5760,true,0.1370172135621459,2,533.3333333333334,112.49999999999999,81.86814449918634
5793,true,0.15442239134793567,2,533.3333333333334,112.49999999999999,81.86814449918634
5826,true,0.10970474568959787,2,533.3333333333334,112.49999999999999,81.86814449918634
5861,true,0.043971167162865754,2,533.3333333333334,112.49999999999999,81.86814449918634
5888,true,-0.015515726962433973,3,433.33333333333337,138.46153846153845,81.86814449918634
5921,true,-0.03723826108128492,3,433.33333333333337,138.46153846153845,81.86814449918634
5959,true,-0.011993900716078087,3,433.33333333333337,138.46153846153845,81.86814449918634
5994,true,0.055490343406432885,3,433.33333333333337,138.46153846153845,81.86814449918634
6027,true,0.143625205312631,3,433.33333333333337,138.46153846153845,81.86814449918634
6060,true,0.23669827168093605,3,433.33333333333337,138.46153846153845,81.86814449918634
6091,true,0.32555798752640897,8,733.3333333333333,81.81818181818183,81.86814449918634
6129,true,0.40139077148154456,8,733.3333333333333,81.81818181818183,81.85315569488498
6159,true,0.439290035081342,8,733.3333333333333,81.81818181818183,81.84266353187402
6194,true,0.3042841066082218,9,733.3333333333333,81.81818181818183,81.83531901776635
6227,true,-0.03493194908763542,9,733.3333333333333,81.81818181818183,81.83017785789099
6273,true,-0.46297474790341653,9,733.3333333333333,81.81818181818183,81.82657904597824
6290,true,-0.9293993952748991,9,733.3333333333333,81.81818181818183,81.82405987763931
6372,true,-1.3379027461549526,9,733.3333333333333,81.81818181818183,81.82229645980206
6394,true,-1.571591232671281,9,733.3333333333333,81.81818181818183,81.82106206731598
6464,true,-1.5995175922428473,9,733.3333333333333,81.81818181818183,81.82019799257573
6491,true,-1.5681343193680277,9,733.3333333333333,81.81818181818183,81.81959314025755
6568,true,-1.520552905674947,9,733.3333333333333,81.81818181818183,81.81916974363483
6598,true,-1.510495666926019,11,733.3333333333333,81.81818181818183,81.81887336599893
6668,true,-1.4801315086080393,11,733.3333333333333,81.81818181818183,81.81866590165379
6695,true,-1.4471663687934324,11,733.3333333333333,81.81818181818183,81.8185206766122
6762,true,-1.3630870590688318,11,733.3333333333333,81.81818181818183,81.81841901908308
6791,true,-1.2447515924250752,12,733.3333333333333,81.81818181818183,81.8183478588127
6877,true,-1.1146732854336108,12,733.3333333333333,81.81818181818183,81.81829804662343
6909,true,-1.050742689198401,12,733.3333333333333,81.81818181818183,81.81826317809094
6975,true,-1.4053253567374782,12,733.3333333333333,81.81818181818183,81.8182387701182
6998,true,-1.8165151238278128,12,733.3333333333333,81.81818181818183,81.81822168453729
7077,true,-2.225592024415107,12,733.3333333333333,81.81818181818183,81.81820972463065
7095,true,-2.653437717301756,12,733.3333333333333,81.81818181818183,81.818201352696
7167,true,-3.0309040647728978,12,733.3333333333333,81.81818181818183,81.81819549234174
7199,true,-3.0114298308751444,12,733.3333333333333,81.81818181818183,81.81819139009377
7270,true,-3.0182816270219917,12,733.3333333333333,81.81818181818183,81.81818851852017
7293,true,-3.0732593867923583,12,733.3333333333333,81.81818181818183,81.81818650841866
7363,true,-3.1092386506641105,12,733.3333333333333,81.81818181818183,81.81818510134761
7391,true,-3.1550271609241918,12,733.3333333333333,81.81818181818183,81.81818411639787
7467,true,-3.156412786314803,12,733.3333333333333,81.81818181818183,81.81818342693305
7505,true,-3.0818847943950374,12,733.3333333333333,81.81818181818183,81.81818294430767
7518,true,-2.9759545358560757,12,733.3333333333333,81.81818181818183,81.81818260646992
7556,true,-2.8841619244088292,12,733.3333333333333,81.81818181818183,81.81818236998348
7591,true,-2.8108495954380857,12,733.3333333333333,81.81818181818183,81.81818220444298
7627,true,-2.770431249067073,12,733.3333333333333,81.81818181818183,81.81818208856463
7695,true,-3.0196158765968875,12,733.3333333333333,81.81818181818183,81.81818200744978
7725,true,-3.4060781226250185,12,733.3333333333333,81.81818181818183,81.81818195066938
7795,true,-3.82445654688928,13,666.6666666666666,90.0,81.8181819109231
7824,true,-4.224335577898415,13,666.6666666666666,90.0,84.27272733764616
7854,true,-4.60170954643371,13,666.6666666666666,90.0,85.99090913635231
7891,true,-4.701004939862543,13,666.6666666666666,90.0,87.19363639544662
7922,true,-4.631362217148066,13,666.6666666666666,90.0,88.03554547681263
7964,true,-4.514872119818435,13,666.6666666666666,90.0,88.62488183376884
7996,true,-4.382074655561539,13,666.6666666666666,90.0,89.03741728363818
8028,true,-4.202081615195979,13,666.6666666666666,90.0,89.32619209854673
8060,true,-3.970894910644276,13,666.6666666666666,90.0,89.5283344689827
8095,true,-3.706408822529326,13,666.6666666666666,90.0,89.66983412828789
8131,true,-3.367793693719179,1,400.0,150.0,89.76888388980151
8159,true,-2.9690994886002784,1,400.0,150.0,89.76888388980151
8186,true,-2.834702400041053,1,400.0,150.0,89.76888388980151
8229,true,-2.682761159067965,1,400.0,150.0,89.76888388980151
8262,true,-2.514267018977577,1,400.0,150.0,89.76888388980151
8289,true,-2.348968927669844,1,400.0,150.0,89.76888388980151
8327,true,-2.1981597261905534,1,400.0,150.0,89.76888388980151
8356,true,-2.0650928010131366,1,400.0,150.0,89.76888388980151
8389,true,-2.0226006579912905,1,400.0,150.0,89.76888388980151
8425,true,-2.2047076892254722,1,400.0,150.0,89.76888388980151
8454,true,-2.540276715353002,1,400.0,150.0,89.76888388980151
8490,true,-2.948888598824894,1,400.0,150.0,89.76888388980151
8524,true,-3.364415287295003,1,400.0,150.0,89.76888388980151
8556,true,-3.7120332952333257,1,400.0,150.0,89.76888388980151
8592,true,-3.8250013885724314,1,400.0,150.0,89.76888388980151
8628,true,-3.775804173623996,1,400.0,150.0,89.76888388980151
8663,true,-3.6437974954579744,1,400.0,150.0,89.76888388980151
8700,true,-3.5126745525572716,1,400.0,150.0,89.76888388980151
8731,true,-3.4097149359078287,1,400.0,150.0,89.76888388980151
8800,true,-3.339276114376162,12,666.6666666666666,90.0,89.76888388980151
8835,true,-3.2718645037276275,12,666.6666666666666,90.0,89.83821872286106
8855,true,-3.197866233074734,12,666.6666666666666,90.0,89.88675310600274
8891,true,-3.0949623686016707,12,666.6666666666666,90.0,89.92072717420191
8924,true,-2.9462652725410265,12,666.6666666666666,90.0,89.94450902194134
8964,true,-2.765523612823287,12,666.6666666666666,90.0,89.96115631535893
9000,true,-2.576654579959353,12,666.6666666666666,90.0,89.97280942075125
9025,true,-2.4025020218681874,12,666.6666666666666,90.0,89.98096659452587
9059,true,-2.2499737565544393,12,666.6666666666666,90.0,89.9866766161681
9113,true,-2.1827827863667437,12,666.6666666666666,90.0,89.99067363131766
9124,true,-2.3427755266223045,13,666.6666666666666,90.0,89.99347154192236
9155,true,-2.676768111803568,13,666.6666666666666,90.0,89.99543007934565
9189,true,-3.072888983726827,13,666.6666666666666,90.0,89.99680105554195
9223,true,-3.475191876770481,13,666.6666666666666,90.0,89.99776073887936
9255,true,-3.8125160523121338,13,666.6666666666666,90.0,89.99843251721555
9287,true,-3.930834142073806,12,666.6666666666666,90.0,89.99890276205088
9323,true,-3.882388491545285,12,666.6666666666666,90.0,89.99923193343561
9354,true,-3.761728720148497,12,666.6666666666666,90.0,89.99946235340492
9391,true,-3.647277656240931,12,666.6666666666666,90.0,89.99962364738344
9426,true,-3.5568746302081564,12,666.6666666666666,90.0,89.9997365531684
9457,true,-3.495626797129944,12,666.6666666666666,90.0,89.99981558721788
9491,true,-3.446763710454263,12,666.6666666666666,90.0,89.99987091105251
9522,true,-3.3982967623308724,12,666.6666666666666,90.0,89.99990963773675
9557,true,-3.3162842640862493,12,666.6666666666666,90.0,89.99993674641573
9590,true,-3.1778059355332005,12,666.6666666666666,90.0,89.999955722491
9622,true,-3.003705248208604,12,666.6666666666666,90.0,89.9999690057437
9655,true,-2.8022385186365426,12,666.6666666666666,90.0,89.99997830402057
9687,true,-2.6022486759257504,12,666.6666666666666,90.0,89.9999848128144
9726,true,-2.413377913867066,12,666.6666666666666,90.0,89.99998936897008
9752,true,-2.250153447899038,12,666.6666666666666,90.0,89.99999255827905
9792,true,-2.104640983319541,12,666.6666666666666,90.0,89.99999479079533
9822,true,-2.0184124226697975,12,666.6666666666666,90.0,89.99999635355672
9856,true,-2.142256664070274,13,666.6666666666666,90.0,89.9999974474897
9890,true,-2.492171103381736,12,666.6666666666666,90.0,89.99999821324279
9930,true,-2.925827165659854,12,666.6666666666666,90.0,89.99999874926995
9962,true,-3.3803292184784226,12,666.6666666666666,90.0,89.99999912448897
9992,true,-3.8047259709378807,12,666.6666666666666,90.0,89.99999938714228
10020,true,-4.0131042909566474,12,666.6666666666666,90.0,89.99999957099959
10055,true,-3.9986796617306766,12,666.6666666666666,90.0,89.99999969969971
10087,true,-3.8953071095272946,12,666.6666666666666,90.0,89.9999997897898
10125,true,-3.7767408705349226,12,666.6666666666666,90.0,89.99999985285285
10154,true,-3.6828166477354927,12,666.6666666666666,90.0,89.999999896997
10189,true,-3.6313431096778714,12,666.6666666666666,90.0,89.9999999278979
10225,true,-3.5971588407735453,12,666.6666666666666,90.0,89.99999994952853
10260,true,-3.5634822343178314,12,666.6666666666666,90.0,89.99999996466997
10288,true,-3.506474291675488,12,666.6666666666666,90.0,89.99999997526896
10320,true,-3.403426819084615,12,666.6666666666666,90.0,89.99999998268828
10355,true,-3.2549486185609027,12,666.6666666666666,90.0,89.9999999878818
10389,true,-3.073355012757716,12,666.6666666666666,90.0,89.99999999151726
10419,true,-2.880115303810996,12,666.6666666666666,90.0,89.99999999406208
10457,true,-2.692651028727724,12,666.6666666666666,90.0,89.99999999584345
10494,true,-2.520622127250107,12,666.6666666666666,90.0,89.99999999709041
10524,true,-2.361301753665913,12,666.6666666666666,90.0,89.99999999796329
10560,true,-2.2348246768863334,12,666.6666666666666,90.0,89.9999999985743
10596,true,-2.2471361396491005,13,666.6666666666666,90.0,89.999999999002
10622,true,-2.519590838063607,12,733.3333333333333,81.81818181818183,89.9999999993014
10659,true,-2.908866026562251,12,733.3333333333333,81.81818181818183,87.54545454496551
10694,true,-3.339793135411,12,733.3333333333333,81.81818181818183,85.8272727269304
10725,true,-3.76747245863217,12,733.3333333333333,81.81818181818183,84.62454545430583
10754,true,-4.053385147700936,12,733.3333333333333,81.81818181818183,83.78263636346863
10788,true,-4.085048046649533,12,733.3333333333333,81.81818181818183,83.19329999988258
10817,true,-3.9866259088988016,12,733.3333333333333,81.81818181818183,82.78076454537235
10855,true,-3.8535503657339376,12,733.3333333333333,81.81818181818183,82.49198972721518
10887,true,-3.743341943982074,12,733.3333333333333,81.81818181818183,82.28984735450517
10922,true,-3.682422701993133,12,733.3333333333333,81.81818181818183,82.14834769360816
10956,true,-3.643556564608204,12,733.3333333333333,81.81818181818183,82.04929793098026
10988,true,-3.6138075217437375,12,733.3333333333333,81.81818181818183,81.97996309714073
11061,true,-3.536532298004275,12,733.3333333333333,81.81818181818183,81.93142871345304
11092,true,-3.3951441655485155,12,733.3333333333333,81.81818181818183,81.89745464487167
11164,true,-3.1826305640759927,12,733.3333333333333,81.81818181818183,81.87367279686471
11193,true,-2.9188131539401923,12,733.3333333333333,81.81818181818183,81.85702550325985
11268,true,-2.6466273105943543,12,733.3333333333333,81.81818181818183,81.84537239773644
11297,true,-2.4564668346883565,12,733.3333333333333,81.81818181818183,81.83721522387006
11368,true,-2.727042289383391,12,666.6666666666666,90.0,81.83150520216358
11396,true,-3.0633429562598167,12,666.6666666666666,90.0,84.2820536415145
11421,true,-3.4287402251708556,12,666.6666666666666,90.0,85.99743754906015
11461,true,-3.8044835102765546,12,666.6666666666666,90.0,87.19820628434209
11496,true,-4.1292085902883,12,666.6666666666666,90.0,88.03874439903946
11521,true,-4.003034060585023,12,666.6666666666666,90.0,88.62712107932762
11564,true,-3.8694136525053437,12,666.6666666666666,90.0,89.03898475552933
11591,true,-3.755907873478648,12,666.6666666666666,90.0,89.32728932887053
11623,true,-3.677834556071801,12,666.6666666666666,90.0,89.52910253020937
11653,true,-3.6492128563763515,12,666.6666666666666,90.0,89.67037177114656
11688,true,-3.6128585224371363,12,666.6666666666666,90.0,89.76926023980259
11725,true,-3.537898754685102,12,666.6666666666666,90.0,89.83848216786181
11757,true,-3.4276801244758275,12,666.6666666666666,90.0,89.88693751750327
11787,true,-3.2619377899512187,12,666.6666666666666,90.0,89.92085626225229
11823,true,-3.0458025934368465,12,666.6666666666666,90.0,89.94459938357659
11857,true,-2.8312721312376823,12,666.6666666666666,90.0,89.96121956850361
11891,true,-2.6190846939893646,12,666.6666666666666,90.0,89.97285369795253
11919,true,-2.41513771415012,12,666.6666666666666,90.0,89.98099758856677
11955,true,-2.227909150044084,12,666.6666666666666,90.0,89.98669831199673
11988,true,-2.0517315044809266,12,666.6666666666666,90.0,89.9906888183977
12021,true,-1.8978776824021821,12,666.6666666666666,90.0,89.99348217287839
12056,true,-1.849428027450628,12,666.6666666666666,90.0,89.99543752101486
12086,true,-2.0713868372046846,13,666.6666666666666,90.0,89.9968062647104
12119,true,-2.425114867793056,13,666.6666666666666,90.0,89.99776438529727
12156,true,-2.8342604011902495,13,666.6666666666666,90.0,89.99843506970808
12192,true,-3.248260497385715,13,666.6666666666666,90.0,89.99890454879565
12226,true,-3.552683834521673,13,666.6666666666666,90.0,89.99923318415695
12259,true,-3.5931351571368566,13,666.6666666666666,90.0,89.99946322890986
12289,true,-3.529131768047364,13,666.6666666666666,90.0,89.9996242602369
12318,true,-3.430116231784183,13,666.6666666666666,90.0,89.99973698216583
12358,true,-3.346535440791129,13,666.6666666666666,90.0,89.99981588751608
12392,true,-3.318460041157792,13,666.6666666666666,90.0,89.99987112126125
12423,true,-3.318520890629685,13,666.6666666666666,90.0,89.99990978488287
12457,true,-3.3042682162605956,13,666.6666666666666,90.0,89.999936849418
12488,true,-3.2455198769128657,13,666.6666666666666,90.0,89.99995579459261
12522,true,-3.1470259182356983,13,666.6666666666666,90.0,89.99996905621482
12551,true,-3.0313236315860337,13,666.6666666666666,90.0,89.99997833935038
12591,true,-2.88245161830595,13,666.6666666666666,90.0,89.99998483754527
12632,true,-2.685416293869835,13,666.6666666666666,90.0,89.99998938628168
12656,true,-2.506300935196677,13,666.6666666666666,90.0,89.99999257039718
12688,true,-2.352740935719069,13,666.6666666666666,90.0,89.99999479927803
12725,true,-2.1822995416479642,13,666.6666666666666,90.0,89.99999635949462
12754,true,-2.022089840396376,13,666.6666666666666,90.0,89.99999745164624
12789,true,-1.9083925018734078,13,666.6666666666666,90.0,89.99999821615236
12831,true,-1.9371614904210475,14,666.6666666666666,90.0,89.99999875130665
12858,true,-2.2585423436526213,13,666.6666666666666,90.0,89.99999912591466
12890,true,-2.739037724471032,13,666.6666666666666,90.0,89.99999938814025
12920,true,-3.268848131679519,13,666.6666666666666,90.0,89.99999957169817
12953,true,-3.783777465084995,13,666.6666666666666,90.0,89.99999970018871
12992,true,-4.172900211995824,13,666.6666666666666,90.0,89.9999997901321
13029,true,-4.2859456743457685,13,666.6666666666666,90.0,89.99999985309246
13057,true,-4.246568581837266,13,666.6666666666666,90.0,89.99999989716471
13090,true,-4.152665001992787,13,666.6666666666666,90.0,89.99999992801528
13125,true,-4.087712857866151,13,666.6666666666666,90.0,89.9999999496107
13180,true,-4.0528016999624725,13,666.6666666666666,90.0,89.9999999647275
13189,true,-4.003951546854765,13,666.6666666666666,90.0,89.99999997530924
13218,true,-3.9461270769600105,13,666.6666666666666,90.0,89.99999998271646
13257,true,-3.8912856829345372,13,666.6666666666666,90.0,89.99999998790152
13297,true,-3.8158145819049167,13,666.6666666666666,90.0,89.99999999153106
13326,true,-3.717750545933285,13,666.6666666666666,90.0,89.99999999407174