Timestamp(ms),isGoodSignal,filteredIntensity,rrIntervals_count,medianRrMs,rawBpm,filteredBpm
75,true,0.037724737145680365,12,833.3333333333334,72.0,72.12030609139532
79,true,0.06961410495172515,12,833.3333333333334,72.0,72.08421426397672
107,true,0.10276317359561915,12,833.3333333333334,72.0,72.0589499847837
139,true,0.14809345775422855,12,833.3333333333334,72.0,72.04126498934858
165,true,0.21623506847645046,12,833.3333333333334,72.0,72.02888549254399
202,true,0.3056828580835713,11,766.6666666666667,78.26086956521738,72.02021984478078
237,true,0.3770925676031567,11,766.6666666666667,78.26086956521738,73.89241476091175
266,true,0.45191872970457325,11,766.6666666666667,78.26086956521738,75.20295120220342
303,true,0.5201809806579405,11,766.6666666666667,78.26086956521738,76.1203267111076
334,true,0.5857211861331422,11,766.6666666666667,78.26086956521738,76.76248956734052
368,true,0.64693700784062,11,766.6666666666667,78.26086956521738,77.21200356670357
399,true,0.7057102073092381,11,766.6666666666667,78.26086956521738,77.52666336625771
434,true,0.7642571285552151,11,766.6666666666667,78.26086956521738,77.7469252259456
467,true,0.8232759358752872,11,766.6666666666667,78.26086956521738,77.90110852772713
502,true,0.8804886520810129,11,766.6666666666667,78.26086956521738,78.0090368389742
534,true,0.9426990230347911,11,766.6666666666667,78.26086956521738,78.08458665684714
576,true,0.9694592420970167,11,766.6666666666667,78.26086956521738,78.13747152935821
608,true,0.8993509564530342,12,833.3333333333334,72.0,78.17449094011596
642,true,0.7295387577218122,12,833.3333333333334,72.0,76.32214365808116
678,true,0.5092820518537451,12,833.3333333333334,72.0,75.02550056065681
708,true,0.2615712814228601,12,833.3333333333334,72.0,74.11785039245976
741,true,0.04512054502716012,12,833.3333333333334,72.0,73.48249527472183
770,true,-0.08222743999725424,12,833.3333333333334,72.0,73.03774669230528
803,true,-0.11222702071485458,12,833.3333333333334,72.0,72.7264226846137
838,true,-0.10234834498093903,12,833.3333333333334,72.0,72.50849587922959
876,true,-0.08500451649560148,12,833.3333333333334,72.0,72.35594711546071
909,true,-0.08353472173459409,12,833.3333333333334,72.0,72.24916298082249
943,true,-0.08605988408510257,12,833.3333333333334,72.0,72.17441408657574
973,true,-0.09608238366348587,12,833.3333333333334,72.0,72.12208986060301
1009,true,-0.10119276465076155,12,833.3333333333334,72.0,72.08546290242211
1041,true,-0.08833148911524802,12,833.3333333333334,72.0,72.05982403169547
1073,true,-0.050330933042246784,11,833.3333333333334,72.0,72.04187682218682
1106,true,0.006240894599088165,11,833.3333333333334,72.0,72.02931377553077
1141,true,0.08122965440476548,11,833.3333333333334,72.0,72.02051964287153
1174,true,0.1655914953788482,11,833.3333333333334,72.0,72.01436375001006
1211,true,0.24890017872333203,11,833.3333333333334,72.0,72.01005462500704
1239,true,0.329278348392279,11,833.3333333333334,72.0,72.00703823750493
1275,true,0.4024481822181656,11,833.3333333333334,72.0,72.00492676625345
1305,true,0.46858773482939853,11,833.3333333333334,72.0,72.00344873637741
1340,true,0.5339287931102774,11,833.3333333333334,72.0,72.00241411546418
1377,true,0.602238399141612,11,833.3333333333334,72.0,72.00168988082491
1405,true,0.6634566132215696,11,833.3333333333334,72.0,72.00118291657743
1442,true,0.7327558987168317,11,833.3333333333334,72.0,72.0008280416042
1470,true,0.8053274744886778,11,833.3333333333334,72.0,72.00057962912292
1504,true,0.8322824217326001,11,833.3333333333334,72.0,72.00040574038604
1537,true,0.7549171253976255,12,833.3333333333334,72.0,72.00028401827022
1576,true,0.5734754346261894,12,833.3333333333334,72.0,72.00019881278915
1604,true,0.3245252281770661,12,833.3333333333334,72.0,72.0001391689524
1636,true,0.051459960628804424,12,833.3333333333334,72.0,72.00009741826668
1667,true,-0.1722677119593925,12,833.3333333333334,72.0,72.00006819278667
1703,true,-0.29143348421548865,12,833.3333333333334,72.0,72.00004773495067
1737,true,-0.3065986497136919,12,833.3333333333334,72.0,72.00003341446546
1772,true,-0.2671794722258767,11,833.3333333333334,72.0,72.00002339012582
1804,true,-0.21219835343950422,11,833.3333333333334,72.0,72.00001637308807
1839,true,-0.1863248559105415,11,833.3333333333334,72.0,72.00001146116165
1877,true,-0.18206481766443972,11,833.3333333333334,72.0,72.00000802281315
1913,true,-0.17840350470595467,11,833.3333333333334,72.0,72.0000056159692
1940,true,-0.17484559577242464,11,833.3333333333334,72.0,72.00000393117844
1976,true,-0.16768706770295694,11,833.3333333333334,72.0,72.00000275182491
2011,true,-0.13324992025820848,11,833.3333333333334,72.0,72.00000192627743
2044,true,-0.07284310126215132,11,833.3333333333334,72.0,72.00000134839419
2074,true,0.0051995292012065875,11,833.3333333333334,72.0,72.00000094387593
2110,true,0.0931072363807317,11,833.3333333333334,72.0,72.00000066071314
2144,true,0.18702456090302633,11,833.3333333333334,72.0,72.00000046249919
2173,true,0.2699886503717863,11,833.3333333333334,72.0,72.00000032374943
2207,true,0.3506197628578036,11,833.3333333333334,72.0,72.00000022662459
2243,true,0.4244669284743168,11,833.3333333333334,72.0,72.0000001586372
2304,true,0.5039044916889281,11,833.3333333333334,72.0,72.00000011104603
2340,true,0.585726567899485,11,833.3333333333334,72.0,72.00000007773222
2368,true,0.678721901407684,11,833.3333333333334,72.0,72.00000005441255
2404,true,0.7264658073920458,11,833.3333333333334,72.0,72.00000003808879
2433,true,0.668997111145103,12,833.3333333333334,72.0,72.00000002666215
2469,true,0.492212020655856,12,833.3333333333334,72.0,72.0000000186635
2513,true,0.23967486050236175,11,833.3333333333334,72.0,72.00000001306445
2541,true,-0.0425813246836384,11,833.3333333333334,72.0,72.00000000914511
2569,true,-0.2888780095290713,11,833.3333333333334,72.0,72.00000000640158
2602,true,-0.44470739982918417,11,833.3333333333334,72.0,72.0000000044811
2637,true,-0.4924631494142204,11,833.3333333333334,72.0,72.00000000313676
2670,true,-0.4865910190423506,11,833.3333333333334,72.0,72.00000000219573
2720,true,-0.4712257392087622,11,833.3333333333334,72.0,72.000000001537
2758,true,-0.4709444079882843,11,833.3333333333334,72.0,72.0000000010759
2772,true,-0.47709498478012335,11,833.3333333333334,72.0,72.00000000075313
2802,true,-0.48971051017197453,11,833.3333333333334,72.0,72.0000000005272
2834,true,-0.4875476606349025,11,833.3333333333334,72.0,72.00000000036903
2870,true,-0.4635633318091834,11,833.3333333333334,72.0,72.00000000025831
2903,true,-0.4197232209020427,11,833.3333333333334,72.0,72.00000000018082
2939,true,-0.35401425797398645,11,833.3333333333334,72.0,72.00000000012656
2969,true,-0.27194569903076626,11,833.3333333333334,72.0,72.00000000008859
3008,true,-0.18114447159605618,11,833.3333333333334,72.0,72.000000000062
3042,true,-0.09247383612914462,11,833.3333333333334,72.0,72.0000000000434
3075,true,-0.003509526049839451,11,833.3333333333334,72.0,72.00000000003037
3106,true,0.07335798495417123,11,833.3333333333334,72.0,72.00000000002126
3133,true,0.1398128728377941,11,833.3333333333334,72.0,72.00000000001488
3167,true,0.1950464867649515,10,866.6666666666667,69.23076923076923,72.00000000001042
3205,true,0.24896706994123008,10,866.6666666666667,69.23076923076923,71.16923076923806
3233,true,0.29949171851515644,10,866.6666666666667,69.23076923076923,70.58769230769741
3271,true,0.343670377003221,10,866.6666666666667,69.23076923076923,70.18061538461896
3310,true,0.3101513905190245,10,866.6666666666667,69.23076923076923,69.89566153846403
3338,true,0.16130939941042755,10,866.6666666666667,69.23076923076923,69.69619384615558
3366,true,-0.08990706842045881,10,866.6666666666667,69.23076923076923,69.55656646153966
3403,true,-0.383619783428486,10,866.6666666666667,69.23076923076923,69.45882729230853
3435,true,-0.674718251395106,10,866.6666666666667,69.23076923076923,69.39040987384674
3471,true,-0.877592230241774,10,866.6666666666667,69.23076923076923,69.34251768092348
3506,true,-0.9518091723953006,10,866.6666666666667,69.23076923076923,69.3089931458772
3540,true,-0.9245164405374879,10,866.6666666666667,69.23076923076923,69.28552597134481
3573,true,-0.8667684881460218,10,866.6666666666667,69.23076923076923,69.26909894917213
3602,true,-0.8250919808553476,10,866.6666666666667,69.23076923076923,69.25760003365126
3639,true,-0.8052701151835606,10,866.6666666666667,69.23076923076923,69.24955079278664
3672,true,-0.8137472097761673,10,866.6666666666667,69.23076923076923,69.24391632418141
3711,true,-0.8341833303262547,10,866.6666666666667,69.23076923076923,69.23997219615775
3742,true,-0.8365455793088046,10,866.6666666666667,69.23076923076923,69.23721130654118
3771,true,-0.8062626128533452,10,866.6666666666667,69.23076923076923,69.23527868380958
3805,true,-0.7522356998814672,10,866.6666666666667,69.23076923076923,69.23392584789747
3838,true,-0.6587750994702475,10,866.6666666666667,69.23076923076923,69.23297886275898
3875,true,-0.5496887994481199,10,866.6666666666667,69.23076923076923,69.23231597316206
3903,true,-0.4410099396500442,10,866.6666666666667,69.23076923076923,69.2318519504442
3935,true,-0.330886272061619,10,866.6666666666667,69.23076923076923,69.2315271345417
3970,true,-0.23298835036169407,10,866.6666666666667,69.23076923076923,69.23129976340995
4008,true,-0.15073096869204505,10,866.6666666666667,69.23076923076923,69.23114060361773
4036,true,-0.07087837114990236,10,866.6666666666667,69.23076923076923,69.23102919176318
4069,true,-0.0036946887259432515,10,866.6666666666667,69.23076923076923,69.230951203465
4101,true,0.056733811024088254,10,866.6666666666667,69.23076923076923,69.23089661165626
4136,true,0.11637711552185692,10,866.6666666666667,69.23076923076923,69.23085839739015
4171,true,0.11176243367094685,11,866.6666666666667,69.23076923076923,69.23083164740387
4201,true,-0.010322879305149968,11,866.6666666666667,69.23076923076923,69.23081292241348
4238,true,-0.25124357610357606,11,866.6666666666667,69.23076923076923,69.2307998149202
4272,true,-0.5466026875430572,11,866.6666666666667,69.23076923076923,69.23079063967491
4305,true,-0.8575279408365191,11,866.6666666666667,69.23076923076923,69.23078421700319
4332,true,-1.1008955866894894,11,866.6666666666667,69.23076923076923,69.23077972113299
4373,true,-1.2212270135183587,11,866.6666666666667,69.23076923076923,69.23077657402385
4408,true,-1.2127340617650617,11,866.6666666666667,69.23076923076923,69.23077437104746
4432,true,-1.1614924126353685,11,866.6666666666667,69.23076923076923,69.23077282896398
4471,true,-1.1067692735343115,11,866.6666666666667,69.23076923076923,69.23077174950555
4501,true,-1.076738118036829,11,866.6666666666667,69.23076923076923,69.23077099388465
4538,true,-1.073160509518729,10,866.6666666666667,69.23076923076923,69.23077046495001
4572,true,-1.0844621740339733,10,866.6666666666667,69.23076923076923,69.23077009469577
4599,true,-1.0854991677694272,10,866.6666666666667,69.23076923076923,69.2307698355178
4634,true,-1.0708433289825763,10,866.6666666666667,69.23076923076923,69.23076965409322
4671,true,-1.0311939064213647,10,866.6666666666667,69.23076923076923,69.23076952709602
4703,true,-0.9598690451660161,10,866.6666666666667,69.23076923076923,69.23076943819797
4736,true,-0.8701529603662692,10,866.6666666666667,69.23076923076923,69.23076937596934
4770,true,-0.7721253016187717,10,866.6666666666667,69.23076923076923,69.2307693324093
4798,true,-0.6717746074964737,10,866.6666666666667,69.23076923076923,69.23076930191726
4831,true,-0.5738440050278371,10,866.6666666666667,69.23076923076923,69.23076928057284
4869,true,-0.4880351807897654,10,866.6666666666667,69.23076923076923,69.23076926563175
4898,true,-0.4130637902072323,10,866.6666666666667,69.23076923076923,69.23076925517299
4933,true,-0.3426577574546599,10,866.6666666666667,69.23076923076923,69.23076924785185
4972,true,-0.26669860461166195,10,866.6666666666667,69.23076923076923,69.23076924272706
5007,true,-0.21936755038116473,10,866.6666666666667,69.23076923076923,69.2307692391397
5039,true,-0.27263098473707714,11,866.6666666666667,69.23076923076923,69.23076923662856
5077,true,-0.4494189236534396,11,866.6666666666667,69.23076923076923,69.23076923487076
5110,true,-0.711270876721926,11,866.6666666666667,69.23076923076923,69.2307692336403
5136,true,-1.0160173936835406,11,866.6666666666667,69.23076923076923,69.23076923277898
5165,true,-1.2836940159624532,11,866.6666666666667,69.23076923076923,69.23076923217604
5201,true,-1.4322742541129259,11,866.6666666666667,69.23076923076923,69.230769231754
5232,true,-1.45272420056628,11,866.6666666666667,69.23076923076923,69.23076923145857
5270,true,-1.4074862428815749,11,866.6666666666667,69.23076923076923,69.23076923125177
5304,true,-1.344163226302257,10,866.6666666666667,69.23076923076923,69.230769231107
5332,true,-1.3114052529846845,10,866.6666666666667,69.23076923076923,69.23076923100567
5367,true,-1.3210232402878148,10,866.6666666666667,69.23076923076923,69.23076923093473
5401,true,-1.339758052067893,10,866.6666666666667,69.23076923076923,69.23076923088507
5434,true,-1.3495787503395604,10,866.6666666666667,69.23076923076923,69.23076923085031
5470,true,-1.340993779600126,10,866.6666666666667,69.23076923076923,69.23076923082598
5502,true,-1.3102911814978029,10,866.6666666666667,69.23076923076923,69.23076923080896
5533,true,-1.2499776972138221,10,866.6666666666667,69.23076923076923,69.23076923079704
5568,true,-1.1716087706324743,10,866.6666666666667,69.23076923076923,69.2307692307887
5605,true,-1.0862051991778543,10,866.6666666666667,69.23076923076923,69.23076923078284
5636,true,-0.99762383364002,10,866.6666666666667,69.23076923076923,69.23076923077875
5671,true,-0.9120362331973126,10,866.6666666666667,69.23076923076923,69.23076923077588
5702,true,-0.8334987526779685,10,866.6666666666667,69.23076923076923,69.23076923077389
5734,true,-0.7606146792232096,10,866.6666666666667,69.23076923076923,69.2307692307725
5772,true,-0.6982017224138275,10,866.6666666666667,69.23076923076923,69.2307692307715
5803,true,-0.6412149648817547,10,866.6666666666667,69.23076923076923,69.23076923077082
5838,true,-0.580373403666016,10,866.6666666666667,69.23076923076923,69.23076923077033
5870,true,-0.5685572625937709,10,866.6666666666667,69.23076923076923,69.23076923077
5900,true,-0.6818674971132026,11,866.6666666666667,69.23076923076923,69.23076923076977
5932,true,-0.9033470854162857,11,866.6666666666667,69.23076923076923,69.2307692307696
5967,true,-1.1774235100584747,11,866.6666666666667,69.23076923076923,69.23076923076948
6006,true,-1.462505178802644,11,866.6666666666667,69.23076923076923,69.2307692307694
6040,true,-1.677877974784991,11,866.6666666666667,69.23076923076923,69.23076923076934
6069,true,-1.748990945896864,11,866.6666666666667,69.23076923076923,69.23076923076931
6100,true,-1.6936585535378867,11,866.6666666666667,69.23076923076923,69.23076923076928
6135,true,-1.5873193499919154,10,866.6666666666667,69.23076923076923,69.23076923076925
6171,true,-1.4844088766462988,10,866.6666666666667,69.23076923076923,69.23076923076924
6205,true,-1.4281387629337132,10,866.6666666666667,69.23076923076923,69.23076923076923
6236,true,-1.415604217168962,10,866.6666666666667,69.23076923076923,69.23076923076923
6270,true,-1.4120795228757856,10,866.6666666666667,69.23076923076923,69.23076923076923
6302,true,-1.4012395944553901,10,866.6666666666667,69.23076923076923,69.23076923076923
6337,true,-1.3634007300566964,10,866.6666666666667,69.23076923076923,69.23076923076923
6371,true,-1.2805574477342674,10,866.6666666666667,69.23076923076923,69.23076923076923
6404,true,-1.1562120510761247,10,866.6666666666667,69.23076923076923,69.23076923076923
6436,true,-1.0254352974592251,10,866.6666666666667,69.23076923076923,69.23076923076923
6470,true,-0.8841894282093818,10,866.6666666666667,69.23076923076923,69.23076923076923
6503,true,-0.7427583763439429,10,866.6666666666667,69.23076923076923,69.23076923076923
6538,true,-0.6081930328515313,10,866.6666666666667,69.23076923076923,69.23076923076923
6568,true,-0.4865263933991031,10,866.6666666666667,69.23076923076923,69.23076923076923
6600,true,-0.36587404777145593,10,866.6666666666667,69.23076923076923,69.23076923076923
6639,true,-0.2903275946739541,10,866.6666666666667,69.23076923076923,69.23076923076923
6669,true,-0.3310012434397578,10,866.6666666666667,69.23076923076923,69.23076923076923
6701,true,-0.5036877278879928,10,866.6666666666667,69.23076923076923,69.23076923076923
6759,true,-0.7517588036816534,10,866.6666666666667,69.23076923076923,69.23076923076923
6774,true,-1.0328664290350815,10,866.6666666666667,69.23076923076923,69.23076923076923
6804,true,-1.2678061702304575,10,866.6666666666667,69.23076923076923,69.23076923076923
6837,true,-1.3767462353657152,10,866.6666666666667,69.23076923076923,69.23076923076923
6869,true,-1.3489435642810719,10,866.6666666666667,69.23076923076923,69.23076923076923
6901,true,-1.2521980774282326,10,866.6666666666667,69.23076923076923,69.23076923076923
6932,true,-1.1489098499976933,10,866.6666666666667,69.23076923076923,69.23076923076923
6966,true,-1.0840940721761712,9,866.6666666666667,69.23076923076923,69.23076923076923
7002,true,-1.0660370444635845,9,866.6666666666667,69.23076923076923,69.23076923076923
7036,true,-1.076679083031209,9,866.6666666666667,69.23076923076923,69.23076923076923
7069,true,-1.0799361147453368,9,866.6666666666667,69.23076923076923,69.23076923076923
7108,true,-1.0545051737436353,9,866.6666666666667,69.23076923076923,69.23076923076923
7150,true,-0.9918259431190393,9,866.6666666666667,69.23076923076923,69.23076923076923
7169,true,-0.9026078219872034,9,866.6666666666667,69.23076923076923,69.23076923076923
7202,true,-0.7898905643220786,9,866.6666666666667,69.23076923076923,69.23076923076923
7240,true,-0.6723886703918396,9,866.6666666666667,69.23076923076923,69.23076923076923
7277,true,-0.5615125688784275,9,866.6666666666667,69.23076923076923,69.23076923076923
7305,true,-0.45116273682688757,9,866.6666666666667,69.23076923076923,69.23076923076923
7333,true,-0.3435171122297618,9,866.6666666666667,69.23076923076923,69.23076923076923
7375,true,-0.24977282755824604,9,866.6666666666667,69.23076923076923,69.23076923076923
7408,true,-0.1904410089916979,9,866.6666666666667,69.23076923076923,69.23076923076923
7433,true,-0.22375037257644692,9,866.6666666666667,69.23076923076923,69.23076923076923
7468,true,-0.40838729500472937,9,866.6666666666667,69.23076923076923,69.23076923076923
7501,true,-0.7181133651660758,9,866.6666666666667,69.23076923076923,69.23076923076923
7532,true,-1.0725195969963295,9,866.6666666666667,69.23076923076923,69.23076923076923
7570,true,-1.4009605391604651,9,866.6666666666667,69.23076923076923,69.23076923076923
7602,true,-1.6210941180534348,9,866.6666666666667,69.23076923076923,69.23076923076923
7637,true,-1.6920825024306794,9,866.6666666666667,69.23076923076923,69.23076923076923
7664,true,-1.6357850946947394,9,866.6666666666667,69.23076923076923,69.23076923076923
7700,true,-1.5395663938711266,9,866.6666666666667,69.23076923076923,69.23076923076923
7735,true,-1.4658850616442436,9,866.6666666666667,69.23076923076923,69.23076923076923
7765,true,-1.432603090298855,9,866.6666666666667,69.23076923076923,69.23076923076923
7801,true,-1.4271309756805692,9,866.6666666666667,69.23076923076923,69.23076923076923
7837,true,-1.4268715939588361,9,866.6666666666667,69.23076923076923,69.23076923076923
7872,true,-1.4097161192376575,9,866.6666666666667,69.23076923076923,69.23076923076923
7900,true,-1.363319576332941,9,866.6666666666667,69.23076923076923,69.23076923076923
7932,true,-1.278562789427724,9,866.6666666666667,69.23076923076923,69.23076923076923
7969,true,-1.1692629279426967,9,866.6666666666667,69.23076923076923,69.23076923076923
8006,true,-1.0507536472899233,9,866.6666666666667,69.23076923076923,69.23076923076923
8034,true,-0.9431267363892175,9,866.6666666666667,69.23076923076923,69.23076923076923
8069,true,-0.8421908799783466,9,866.6666666666667,69.23076923076923,69.23076923076923
8104,true,-0.7567776944473081,9,866.6666666666667,69.23076923076923,69.23076923076923
8135,true,-0.7003567613419364,9,866.6666666666667,69.23076923076923,69.23076923076923
8168,true,-0.7406425844843767,8,866.6666666666667,69.23076923076923,69.23076923076923
8206,true,-0.9291124161412228,8,866.6666666666667,69.23076923076923,69.23076923076923
8240,true,-1.228845365056543,8,866.6666666666667,69.23076923076923,69.23076923076923
8269,true,-1.5586674490002252,8,866.6666666666667,69.23076923076923,69.23076923076923
8298,true,-1.857188107377624,8,866.6666666666667,69.23076923076923,69.23076923076923
8337,true,-2.0463419233926885,8,866.6666666666667,69.23076923076923,69.23076923076923
8369,true,-2.0791376518251212,8,866.6666666666667,69.23076923076923,69.23076923076923
8403,true,-2.000486564810643,8,866.6666666666667,69.23076923076923,69.23076923076923
8435,true,-1.9031502897993704,8,866.6666666666667,69.23076923076923,69.23076923076923
8471,true,-1.8310840574932286,8,866.6666666666667,69.23076923076923,69.23076923076923
8502,true,-1.797293272338237,8,866.6666666666667,69.23076923076923,69.23076923076923
8537,true,-1.7668101634184552,8,866.6666666666667,69.23076923076923,69.23076923076923
8572,true,-1.7322124931856422,8,866.6666666666667,69.23076923076923,69.23076923076923
8605,true,-1.6820929401907279,8,866.6666666666667,69.23076923076923,69.23076923076923
8636,true,-1.604982710401373,8,866.6666666666667,69.23076923076923,69.23076923076923
8669,true,-1.490329995407592,8,866.6666666666667,69.23076923076923,69.23076923076923
8708,true,-1.368703971509376,5,866.6666666666667,69.23076923076923,69.23076923076923
8738,true,-1.246462554830245,5,866.6666666666667,69.23076923076923,69.23076923076923
8772,true,-1.1231177836628774,5,866.6666666666667,69.23076923076923,69.23076923076923
8804,true,-1.0000413563891186,5,866.6666666666667,69.23076923076923,69.23076923076923
8833,true,-0.9282244199626319,5,866.6666666666667,69.23076923076923,69.23076923076923
8872,true,-0.9775859306017622,10,866.6666666666667,69.23076923076923,69.23076923076923
8904,true,-1.1714880091292201,10,866.6666666666667,69.23076923076923,69.23076923076923
8939,true,-1.4372847966574511,10,866.6666666666667,69.23076923076923,69.23076923076923
8981,true,-1.721977050465071,10,866.6666666666667,69.23076923076923,69.23076923076923
8999,true,-1.9604173319737725,10,866.6666666666667,69.23076923076923,69.23076923076923
9033,true,-2.069088690480129,10,866.6666666666667,69.23076923076923,69.23076923076923
9069,true,-2.027777108847829,10,866.6666666666667,69.23076923076923,69.23076923076923
9101,true,-1.9235786380513815,10,866.6666666666667,69.23076923076923,69.23076923076923
9140,true,-1.8258265869061319,10,866.6666666666667,69.23076923076923,69.23076923076923
9167,true,-1.7655707740906479,10,866.6666666666667,69.23076923076923,69.23076923076923
9200,true,-1.738458460766111,10,866.6666666666667,69.23076923076923,69.23076923076923
9235,true,-1.7260531357662359,10,866.6666666666667,69.23076923076923,69.23076923076923
9269,true,-1.701620917080291,10,866.6666666666667,69.23076923076923,69.23076923076923
9300,true,-1.6639624330401972,10,866.6666666666667,69.23076923076923,69.23076923076923
9345,true,-1.604527964532366,10,866.6666666666667,69.23076923076923,69.23076923076923
9372,true,-1.5099907324784994,10,866.6666666666667,69.23076923076923,69.23076923076923
9407,true,-1.4015381888098517,10,866.6666666666667,69.23076923076923,69.23076923076923
9439,true,-1.2854754215717747,10,866.6666666666667,69.23076923076923,69.23076923076923
9481,true,-1.1604278426609937,10,866.6666666666667,69.23076923076923,69.23076923076923
9501,true,-1.0668775255120266,10,866.6666666666667,69.23076923076923,69.23076923076923
9535,true,-1.1087795066863464,11,866.6666666666667,69.23076923076923,69.23076923076923
9568,true,-1.296362388375556,11,866.6666666666667,69.23076923076923,69.23076923076923
9602,true,-1.5576914677537985,11,866.6666666666667,69.23076923076923,69.23076923076923
9636,true,-1.8353641358259551,10,866.6666666666667,69.23076923076923,69.23076923076923
9670,true,-2.056983576137071,10,866.6666666666667,69.23076923076923,69.23076923076923
9702,true,-2.1559170696839516,10,866.6666666666667,69.23076923076923,69.23076923076923
9734,true,-2.119358833797378,10,866.6666666666667,69.23076923076923,69.23076923076923
9783,true,-2.02910455111612,10,866.6666666666667,69.23076923076923,69.23076923076923
9806,true,-1.9931561470398549,10,866.6666666666667,69.23076923076923,69.23076923076923
9847,true,-2.0020881661661463,10,866.6666666666667,69.23076923076923,69.23076923076923
9871,true,-1.9865496124732118,10,866.6666666666667,69.23076923076923,69.23076923076923
9902,true,-1.9754061391297313,10,866.6666666666667,69.23076923076923,69.23076923076923
9937,true,-1.9458994639380194,10,866.6666666666667,69.23076923076923,69.23076923076923
9967,true,-1.844502613484508,10,866.6666666666667,69.23076923076923,69.23076923076923
9998,true,-1.7083081980763524,10,866.6666666666667,69.23076923076923,69.23076923076923
10033,true,-1.5825336209920522,10,866.6666666666667,69.23076923076923,69.23076923076923
10067,true,-1.4370274895502888,10,866.6666666666667,69.23076923076923,69.23076923076923
10103,true,-1.2953190788596487,10,866.6666666666667,69.23076923076923,69.23076923076923
10134,true,-1.1562461426569257,10,866.6666666666667,69.23076923076923,69.23076923076923
10170,true,-1.0834745951274272,10,866.6666666666667,69.23076923076923,69.23076923076923
10200,true,-1.155381323577302,11,866.6666666666667,69.23076923076923,69.23076923076923
10235,true,-1.3587500603117633,11,866.6666666666667,69.23076923076923,69.23076923076923
10266,true,-1.60732168241708,11,866.6666666666667,69.23076923076923,69.23076923076923
10301,true,-1.857529276130606,11,866.6666666666667,69.23076923076923,69.23076923076923
10332,true,-2.0355125988689053,11,866.6666666666667,69.23076923076923,69.23076923076923
10365,true,-2.0738230568931613,11,866.6666666666667,69.23076923076923,69.23076923076923
10403,true,-2.023368195274074,11,866.6666666666667,69.23076923076923,69.23076923076923
10437,true,-1.9420127567286727,11,866.6666666666667,69.23076923076923,69.23076923076923
10468,true,-1.9013248745201992,11,866.6666666666667,69.23076923076923,69.23076923076923
10498,true,-1.8996958994831488,11,866.6666666666667,69.23076923076923,69.23076923076923
10531,true,-1.8676402013563802,11,866.6666666666667,69.23076923076923,69.23076923076923
10568,true,-1.7945658371386344,10,866.6666666666667,69.23076923076923,69.23076923076923
10604,true,-1.7147180050779411,10,866.6666666666667,69.23076923076923,69.23076923076923
10634,true,-1.5959925013292207,10,866.6666666666667,69.23076923076923,69.23076923076923
10668,true,-1.4392339175958142,10,866.6666666666667,69.23076923076923,69.23076923076923
10705,true,-1.3202727322425432,10,866.6666666666667,69.23076923076923,69.23076923076923
10734,true,-1.198844476649242,10,866.6666666666667,69.23076923076923,69.23076923076923
10764,true,-1.073684995566893,10,866.6666666666667,69.23076923076923,69.23076923076923
10802,true,-1.0211301456515116,10,866.6666666666667,69.23076923076923,69.23076923076923
10833,true,-1.11175190359954,11,766.6666666666667,78.26086956521738,69.23076923076923
10864,true,-1.3050247035558158,11,766.6666666666667,78.26086956521738,71.93979933110367
10897,true,-1.5422529014542476,11,766.6666666666667,78.26086956521738,73.83612040133778
10937,true,-1.7770916669171442,11,766.6666666666667,78.26086956521738,75.16354515050165
10967,true,-1.9361953104335754,11,766.6666666666667,78.26086956521738,76.09274247491636
11002,true,-2.0091885271957466,11,766.6666666666667,78.26086956521738,76.74318060200666
11031,true,-1.9787639677227986,11,766.6666666666667,78.26086956521738,77.19848729096987
11066,true,-1.9264894961586094,11,766.6666666666667,78.26086956521738,77.51720197324411
11098,true,-1.8904181842653287,11,766.6666666666667,78.26086956521738,77.7403022508361
11137,true,-1.8659776725126846,11,766.6666666666667,78.26086956521738,77.89647244515047
11180,true,-1.8025008701402925,11,766.6666666666667,78.26086956521738,78.00579158117054
11202,true,-1.7404167518434406,11,766.6666666666667,78.26086956521738,78.0823149763846
11232,true,-1.6551412888361199,11,766.6666666666667,78.26086956521738,78.13588135303442
11265,true,-1.5236824132724394,11,766.6666666666667,78.26086956521738,78.17337781668931
11301,true,-1.383091737576649,11,766.6666666666667,78.26086956521738,78.19962534124772
11334,true,-1.2192069957304312,11,766.6666666666667,78.26086956521738,78.21799860843862
11375,true,-1.0459303931378798,11,766.6666666666667,78.26086956521738,78.23085989547224
11399,true,-0.884607367686101,11,766.6666666666667,78.26086956521738,78.23986279639578
11431,true,-0.8325472792655546,11,766.6666666666667,78.26086956521738,78.24616482704226
11466,true,-0.9042481549156633,12,766.6666666666667,78.26086956521738,78.2505762484948
11498,true,-1.0698412727567472,11,733.3333333333333,81.81818181818183,78.25366424351157
11537,true,-1.2899855409229986,11,733.3333333333333,81.81818181818183,79.32301951591265
11569,true,-1.5037872197517999,11,733.3333333333333,81.81818181818183,80.0715682065934
11601,true,-1.6385308245119319,11,733.3333333333333,81.81818181818183,80.59555229006992
11633,true,-1.6633303503705719,11,733.3333333333333,81.81818181818183,80.96234114850348
11668,true,-1.645801895386029,11,733.3333333333333,81.81818181818183,81.21909334940699
11701,true,-1.5846236552668955,11,733.3333333333333,81.81818181818183,81.39881989003943
11736,true,-1.5620287206388355,11,733.3333333333333,81.81818181818183,81.52462846848215
11775,true,-1.5557245341216372,11,733.3333333333333,81.81818181818183,81.61269447339205
11802,true,-1.5379435383173075,11,733.3333333333333,81.81818181818183,81.67434067682899
11834,true,-1.4834602872791578,11,733.3333333333333,81.81818181818183,81.71749301923484
11870,true,-1.384634320215909,11,733.3333333333333,81.81818181818183,81.74769965891892
11906,true,-1.2602120300699653,11,733.3333333333333,81.81818181818183,81.76884430669779
11934,true,-1.119787706423537,11,733.3333333333333,81.81818181818183,81.78364556014299
12000,true,-0.9440695730531701,11,733.3333333333333,81.81818181818183,81.79400643755463
12039,true,-0.7512574713324085,11,733.3333333333333,81.81818181818183,81.80125905174279
12072,true,-0.6028176069763873,11,733.3333333333333,81.81818181818183,81.8063358816745
12097,true,-0.5003198742229387,11,733.3333333333333,81.81818181818183,81.80988966262669
12131,true,-0.507984628260445,12,733.3333333333333,81.81818181818183,81.81237730929323
12163,true,-0.6146992600384351,12,733.3333333333333,81.81818181818183,81.81411866195981
12197,true,-0.769722701944147,12,733.3333333333333,81.81818181818183,81.81533760882641
12232,true,-0.9382153402215465,12,733.3333333333333,81.81818181818183,81.81619087163304
12271,true,-1.0489468371248734,12,733.3333333333333,81.81818181818183,81.81678815559766
12306,true,-1.0601305589736114,12,733.3333333333333,81.81818181818183,81.8172062543729
12339,true,-1.0102312724162772,12,733.3333333333333,81.81818181818183,81.81749892351559
12371,true,-0.9356351599483617,12,733.3333333333333,81.81818181818183,81.81770379191545
12401,true,-0.868748554199982,11,700.0,85.71428571428571,81.81784719979535
12432,true,-0.8174036030142418,11,700.0,85.71428571428571,82.98677875414245
12466,true,-0.7580457714233262,11,700.0,85.71428571428571,83.80503084218542
12501,true,-0.6987656447908535,11,700.0,85.71428571428571,84.3778073038155
12545,true,-0.6308509919450245,11,700.0,85.71428571428571,84.77875082695655
12571,true,-0.5362135138621937,11,700.0,85.71428571428571,85.05941129315529
12605,true,-0.428320426292629,11,700.0,85.71428571428571,85.25587361949441
12631,true,-0.3128855566485811,11,700.0,85.71428571428571,85.39339724793179
12674,true,-0.19032150050814778,11,700.0,85.71428571428571,85.48966378783796
12700,true,-0.06799794339107734,11,700.0,85.71428571428571,85.55705036577227
12730,true,0.0480032040054823,11,700.0,85.71428571428571,85.6042209703263
12767,true,0.15409646592986803,11,700.0,85.71428571428571,85.63724039351412
12817,true,0.25486673815557026,11,700.0,85.71428571428571,85.66035398974559
12833,true,0.34985985094279215,11,700.0,85.71428571428571,85.67653350710762
12868,true,0.4455332794290001,11,700.0,85.71428571428571,85.68785916926105
12901,true,0.5500103725892558,11,700.0,85.71428571428571,85.69578713276844
12938,true,0.6659616803614625,11,700.0,85.71428571428571,85.70133670722362
12972,true,0.7621817864923628,12,733.3333333333333,81.81818181818183,85.70522140934224
12999,true,0.7931097607254998,12,733.3333333333333,81.81818181818183,84.53910953199411
13031,true,0.7293241200279823,12,733.3333333333333,81.81818181818183,83.72283121785043
13073,true,0.597182916507947,12,733.3333333333333,81.81818181818183,83.15143639794985
13110,true,0.42963617088256,12,733.3333333333333,81.81818181818183,82.75146002401944
13140,true,0.27412295081170157,12,733.3333333333333,81.81818181818183,82.47147656226815
13173,true,0.16510691272429767,12,733.3333333333333,81.81818181818183,82.27548813904224
13206,true,0.13292334860422272,12,733.3333333333333,81.81818181818183,82.13829624278411
13239,true,0.14411501863855847,12,733.3333333333333,81.81818181818183,82.04226191540342
13271,true,0.17169974719435288,11,700.0,85.71428571428571,81.97503788623693
13309,true,0.18533302501045057,11,700.0,85.71428571428571,83.09681223465157
13339,true,0.1967848487318946,11,700.0,85.71428571428571,83.8820542785418
13384,true,0.21854113148442877,11,700.0,85.71428571428571,84.43172370926497
13399,true,0.24868418655984215,11,700.0,85.71428571428571,84.81649231077118
13432,true,0.29112833535269544,11,700.0,85.71428571428571,85.08583033182553
13469,true,0.35113829983180267,11,700.0,85.71428571428571,85.27436694656357
13503,true,0.43410877723840713,11,700.0,85.71428571428571,85.4063425768802
13545,true,0.5257972250796143,11,700.0,85.71428571428571,85.49872551810185
13572,true,0.6151823318448493,11,700.0,85.71428571428571,85.563393576957
13603,true,0.7076789784139237,11,700.0,85.71428571428571,85.6086612181556
13633,true,0.7944534606034779,11,700.0,85.71428571428571,85.64034856699463
13666,true,0.885488779105188,11,700.0,85.71428571428571,85.66252971118195
13702,true,0.9628230020544919,11,700.0,85.71428571428571,85.67805651211307
13744,true,1.0382248891938133,11,700.0,85.71428571428571,85.68892527276486
13771,true,1.1028117974208698,11,700.0,85.71428571428571,85.69653340522112
13809,true,1.1651893852262987,11,700.0,85.71428571428571,85.70185909794048
13837,true,1.1676458933753224,11,700.0,85.71428571428571,85.70558708284405
13872,true,1.088858513949802,11,700.0,85.71428571428571,85.70819667227654
13906,true,0.9600388339195689,11,700.0,85.71428571428571,85.71002338487929
13941,true,0.8105901431796951,11,700.0,85.71428571428571,85.71130208370121
13967,true,0.654125940419533,11,700.0,85.71428571428571,85.71219717287656
14000,true,0.5404274966580687,11,700.0,85.71428571428571,85.7128237352993
14032,true,0.50394731310341,11,700.0,85.71428571428571,85.71326232899521
14066,true,0.5190238890156564,11,700.0,85.71428571428571,85.71356934458235
14102,true,0.5495979216933193,11,700.0,85.71428571428571,85.71378425549335
14138,true,0.5699191077869585,10,700.0,85.71428571428571,85.71393469313105
14166,true,0.5813169784687773,10,700.0,85.71428571428571,85.71403999947745
14199,true,0.592051002942199,10,700.0,85.71428571428571,85.71411371391993
14243,true,0.5977337868527854,9,666.6666666666666,90.0,85.71416531402966
14269,true,0.6085902688236189,9,666.6666666666666,90.0,86.99991571982076
14304,true,0.643953901889887,9,666.6666666666666,90.0,87.89994100387453
14335,true,0.7014742508188903,9,666.6666666666666,90.0,88.52995870271216
14364,true,0.7614268176523069,9,666.6666666666666,90.0,88.97097109189852
14405,true,0.8295072493586559,9,666.6666666666666,90.0,89.27967976432896
14439,true,0.9058965791763285,9,666.6666666666666,90.0,89.49577583503026
14469,true,0.9733085469890312,9,666.6666666666666,90.0,89.64704308452119
14507,true,1.0361610900438905,9,666.6666666666666,90.0,89.75293015916483
14543,true,1.0952884012712474,9,666.6666666666666,90.0,89.82705111141539
14575,true,1.1617606216818075,9,666.6666666666666,90.0,89.87893577799076
14602,true,1.2141675130697251,9,666.6666666666666,90.0,89.91525504459352
14635,true,1.205783848156301,10,700.0,85.71428571428571,89.94067853121547
14663,true,1.1054342567808249,10,700.0,85.71428571428571,88.67276068613654
14697,true,0.9580906834742962,10,700.0,85.71428571428571,87.78521819458129
14731,true,0.7735729475668052,10,700.0,85.71428571428571,87.16393845049261
14765,true,0.5874374710751198,10,700.0,85.71428571428571,86.72904262963053
14797,true,0.45983608057531455,10,700.0,85.71428571428571,86.42461555502707
14830,true,0.420787451664296,10,700.0,85.71428571428571,86.21151660280466
14863,true,0.4272953359923406,10,700.0,85.71428571428571,86.06234733624898
14895,true,0.45224328149751614,10,700.0,85.71428571428571,85.95792884966
14938,true,0.47267451631745416,10,700.0,85.71428571428571,85.88483590904771
14967,true,0.48730621598195967,10,700.0,85.71428571428571,85.8336708506191
14998,true,0.5001760415545391,9,666.6666666666666,90.0,85.79785530971908
15036,true,0.5252164721773909,9,666.6666666666666,90.0,87.05849871680336
15073,true,0.5640584155776338,9,666.6666666666666,90.0,87.94094910176234
15099,true,0.6165084073279559,9,666.6666666666666,90.0,88.55866437123363
15132,true,0.6872597603005488,9,666.6666666666666,90.0,88.99106505986353
15166,true,0.7720948015019502,9,666.6666666666666,90.0,89.29374554190446
15214,true,0.860399000696205,9,666.6666666666666,90.0,89.50562187933312
15235,true,0.9412086391364483,9,666.6666666666666,90.0,89.65393531553318
15264,true,1.0253858310229589,9,666.6666666666666,90.0,89.75775472087321
15300,true,1.096751000764769,9,666.6666666666666,90.0,89.83042830461125
15330,true,1.1576510135158031,9,666.6666666666666,90.0,89.88129981322787
15366,true,1.2167345520585258,9,666.6666666666666,90.0,89.91690986925951
15394,true,1.2867630148498819,9,666.6666666666666,90.0,89.94183690848166
15427,true,1.3580260440746343,9,666.6666666666666,90.0,89.95928583593715
15465,true,1.4324056029847014,9,666.6666666666666,90.0,89.97150008515601
15505,true,1.4569688934919327,9,666.6666666666666,90.0,89.9800500596092
15532,true,1.3838286343251696,10,700.0,85.71428571428571,89.98603504172644
15568,true,1.2107977687160627,10,700.0,85.71428571428571,88.70451024349421
15602,true,0.999711786311309,10,700.0,85.71428571428571,87.80744288473166
15635,true,0.7822080735909793,10,700.0,85.71428571428571,87.17949573359786
15669,true,0.6142230202053156,10,700.0,85.71428571428571,86.73993272780422
15699,true,0.5309022620088939,10,700.0,85.71428571428571,86.43223862374866
15740,true,0.5236145990400871,10,700.0,85.71428571428571,86.21685275090977
15769,true,0.5427959882294573,10,700.0,85.71428571428571,86.06608263992254
15803,true,0.5624547269713389,10,700.0,85.71428571428571,85.96054356223149
15838,true,0.5680858073222055,10,700.0,85.71428571428571,85.88666620784775
15871,true,0.5771264810003487,2,400.0,150.0,85.83495205977914
15906,true,0.5942186607193065,2,400.0,150.0,105.0844664418454
15939,true,0.6168383304469671,2,400.0,150.0,118.55912650929177
15967,true,0.6492392256740516,2,400.0,150.0,127.99138855650423
15996,true,0.7060151146932583,2,400.0,150.0,134.59397198955295
16033,true,0.7788381064351029,2,400.0,150.0,139.21578039268707
16086,true,0.8655191558803494,2,400.0,150.0,142.45104627488092
16101,true,0.9541971501586062,2,400.0,150.0,144.71573239241664
16171,true,1.0482588651175462,2,400.0,150.0,146.30101267469166
16203,true,1.1335370065122419,2,400.0,150.0,147.41070887228415
16232,true,1.2189871600820652,2,400.0,150.0,148.1874962105989
16266,true,1.305216907968429,2,400.0,150.0,148.73124734741924
16308,true,1.3916436979831275,2,400.0,150.0,149.11187314319346
16333,true,1.468574972126092,2,400.0,150.0,149.37831120023543
16372,true,1.5224461177388093,2,400.0,150.0,149.56481784016478
16404,true,1.492084839516295,2,400.0,150.0,149.69537248811534
16438,true,1.3448827217594044,2,400.0,150.0,149.78676074168072
16471,true,1.140218736517241,2,400.0,150.0,149.85073251917652
16502,true,0.9129066942623041,2,400.0,150.0,149.89551276342354
16533,true,0.709781469085982,2,400.0,150.0,149.92685893439648
16568,true,0.5806936769718192,2,400.0,150.0,149.94880125407752
16602,true,0.5523327109434462,2,400.0,150.0,149.96416087785425
16635,true,0.5622253239242667,2,400.0,150.0,149.97491261449795
16671,true,0.5829454861793693,1,400.0,150.0,149.98243883014857
16696,true,0.5865441927024335,1,400.0,150.0,149.98770718110399
16728,true,0.5837932683309788,1,400.0,150.0,149.99139502677278
16760,true,0.5879058704732785,1,400.0,150.0,149.99397651874094
16798,true,0.6013001478355022,1,400.0,150.0,149.99578356311866
16850,true,0.6300739280566034,1,400.0,150.0,149.99704849418305
16867,true,0.6821827360754185,1,400.0,150.0,149.99793394592814
16912,true,0.7524847026757584,1,400.0,150.0,149.9985537621497
16962,true,0.8360434584649852,10,700.0,85.71428571428571,149.99898763350478
16969,true,0.931253498857501,10,700.0,85.71428571428571,130.71357705773906
17012,true,1.0212667986307906,10,700.0,85.71428571428571,117.21378965470305
17035,true,1.110407959888562,10,700.0,85.71428571428571,107.76393847257783
17068,true,1.188417376907367,10,700.0,85.71428571428571,101.14904264509019
17095,true,1.2604493088808937,10,700.0,85.71428571428571,96.51861556584883
17128,true,1.3292847597032562,10,700.0,85.71428571428571,93.27731661037988
17163,true,1.4078538787072432,10,700.0,85.71428571428571,91.00840734155162
17198,true,1.4782088501492723,10,700.0,85.71428571428571,89.42017085337184
17236,true,1.4954595560593447,10,700.0,85.71428571428571,88.308405311646
17265,true,1.4079888289014661,11,700.0,85.71428571428571,87.5301694324379
17301,true,1.233607214499898,11,700.0,85.71428571428571,86.98540431699224
17328,true,1.0167793674347791,11,700.0,85.71428571428571,86.60406873618028
17371,true,0.7977832083252707,11,700.0,85.71428571428571,86.3371338296119
17396,true,0.6368458706208457,11,700.0,85.71428571428571,86.15027939501404
17428,true,0.5694657013838196,10,700.0,85.71428571428571,86.01948129079554
17464,true,0.5797241346971731,10,700.0,85.71428571428571,85.92792261784258
17501,true,0.6132603694603773,10,700.0,85.71428571428571,85.86383154677551
17534,true,0.6279362168866385,10,700.0,85.71428571428571,85.81896779702856
17566,true,0.622316634828536,10,700.0,85.71428571428571,85.78756317220571
17602,true,0.6092614575490813,10,700.0,85.71428571428571,85.7655799348297
17634,true,0.6035695724805095,10,700.0,85.71428571428571,85.7501916686665
17667,true,0.609503277587109,10,700.0,85.71428571428571,85.73941988235227
17704,true,0.6462646636933727,10,700.0,85.71428571428571,85.73187963193229
17736,true,0.7112817323023961,10,700.0,85.71428571428571,85.7266014566383
17770,true,0.8005024923963902,10,700.0,85.71428571428571,85.72290673393252
17800,true,0.8981308408179984,10,700.0,85.71428571428571,85.72032042803848
17862,true,1.002327902811757,10,700.0,85.71428571428571,85.71851001391263
17871,true,1.0964836670298155,10,700.0,85.71428571428571,85.71724272402456
17940,true,1.190132927856041,10,700.0,85.71428571428571,85.71635562110289
17970,true,1.2782457451625646,10,700.0,85.71428571428571,85.71573464905774
18005,true,1.3650283323094783,10,700.0,85.71428571428571,85.71529996862613
18034,true,1.4454028495940605,10,700.0,85.71428571428571,85.714995692324
18067,true,1.508220614479768,10,700.0,85.71428571428571,85.7147826989125
18102,true,1.4705524282210263,11,700.0,85.71428571428571,85.71463360352446
18141,true,1.3155414235448717,11,700.0,85.71428571428571,85.71452923675282
18188,true,1.0905447798160282,11,700.0,85.71428571428571,85.71445618001269
18203,true,0.8319820742576098,10,766.6666666666667,78.26086956521738,85.7144050402946
18234,true,0.5918825579109921,10,766.6666666666667,78.26086956521738,83.47834439777142
18268,true,0.4413246915060398,10,766.6666666666667,78.26086956521738,81.9131019480052
18300,true,0.3946736998033913,10,766.6666666666667,78.26086956521738,80.81743223316886
18331,true,0.4095268122289042,10,766.6666666666667,78.26086956521738,80.0504634327834
18366,true,0.45401697682061126,10,766.6666666666667,78.26086956521738,79.51358527251358
18401,true,0.4946259776596662,10,766.6666666666667,78.26086956521738,79.13777056032473
18433,true,0.5171238012638497,10,766.6666666666667,78.26086956521738,78.87470026179253
18467,true,0.5458436244523881,10,766.6666666666667,78.26086956521738,78.69055105281998
18502,true,0.5744278140184775,10,766.6666666666667,78.26086956521738,78.5616466065392
18534,true,0.61262900009514,10,766.6666666666667,78.26086956521738,78.47141349414264
18570,true,0.6614536004086489,10,766.6666666666667,78.26086956521738,78.40825031546505
18604,true,0.7433699364634521,10,766.6666666666667,78.26086956521738,78.36403609039075
18632,true,0.8438334806703836,10,766.6666666666667,78.26086956521738,78.33308613283873
18667,true,0.9542407025872137,10,766.6666666666667,78.26086956521738,78.31142116255232
18704,true,1.059198658941554,10,766.6666666666667,78.26086956521738,78.29625568335183
18738,true,1.1547390482266877,10,766.6666666666667,78.26086956521738,78.28563984791148
18767,true,1.2376739613114722,10,766.6666666666667,78.26086956521738,78.27820876310324
18805,true,1.3066835968380275,10,766.6666666666667,78.26086956521738,78.27300700373748
18837,true,1.3630123996499464,10,766.6666666666667,78.26086956521738,78.26936577218144
18870,true,1.4173553902343912,10,766.6666666666667,78.26086956521738,78.26681691009222
18899,true,1.4754817340908204,9,766.6666666666667,78.26086956521738,78.26503270662977
18938,true,1.530087409631065,9,766.6666666666667,78.26086956521738,78.26378376420604
18968,true,1.5251301032753162,10,800.0,75.0,78.26290950450944
18995,true,1.4049837256694104,10,800.0,75.0,77.2840366531566
19036,true,1.1750647910359788,10,800.0,75.0,76.59882565720963
19065,true,0.8953060921056704,10,800.0,75.0,76.11917796004674
19102,true,0.5964325924836089,10,800.0,75.0,75.78342457203271
19135,true,0.36112396581850703,10,800.0,75.0,75.5483972004229
19170,true,0.24348687137012348,10,800.0,75.0,75.38387804029603
19206,true,0.2297095802939424,10,800.0,75.0,75.26871462820722
19237,true,0.2510008751534514,10,800.0,75.0,75.18810023974505
19271,true,0.2801799034294845,10,800.0,75.0,75.13167016782154
19302,true,0.28465333855676533,10,800.0,75.0,75.09216911747507
19369,true,0.28260034445391113,10,800.0,75.0,75.06451838223254
19404,true,0.2830949976026602,10,800.0,75.0,75.04516286756277
19469,true,0.31763384123752303,10,800.0,75.0,75.03161400729394
19504,true,0.3798588892770596,10,800.0,75.0,75.02212980510575
19570,true,0.48021454496317517,10,800.0,75.0,75.01549086357403
19605,true,0.6021665946087325,10,800.0,75.0,75.01084360450182
19639,true,0.7385173314759754,10,800.0,75.0,75.00759052315126
19668,true,0.8529679195948887,9,800.0,75.0,75.00531336620588
19698,true,0.9494319472528332,9,800.0,75.0,75.0037193563441
19736,true,1.0295788922979625,9,800.0,75.0,75.00260354944086
19767,true,1.0876628108084248,9,800.0,75.0,75.0018224846086
19799,true,1.1490547781292264,9,800.0,75.0,75.00127573922602
19838,true,1.1912470200432779,9,800.0,75.0,75.00089301745821
19889,true,1.1433546876524332,10,800.0,75.0,75.00062511222075
19899,true,0.9704331356339964,10,800.0,75.0,75.00043757855451
19933,true,0.7161979111202612,10,800.0,75.0,75.00030630498816
19971,true,0.4215428452729384,10,800.0,75.0,75.0002144134917
20001,true,0.14966778795103153,10,800.0,75.0,75.00015008944419
20034,true,-0.028518980882083156,10,800.0,75.0,75.00010506261093
20067,true,-0.09359909210277806,10,800.0,75.0,75.00007354382765
20098,true,-0.08018884136022564,10,800.0,75.0,75.00005148067936
20136,true,-0.052234683629791334,10,800.0,75.0,75.00003603647555
20165,true,-0.03500394829028153,10,800.0,75.0,75.00002522553288
20203,true,-0.03359485201302448,10,800.0,75.0,75.00001765787302
20232,true,-0.03237075449578697,10,800.0,75.0,75.0000123605111
20266,true,-0.026371500268524528,10,800.0,75.0,75.00000865235776
20306,true,-0.0015634490965510395,10,800.0,75.0,75.00000605665043
20337,true,0.043373251101442634,9,800.0,75.0,75.00000423965531
20387,true,0.10864291955934391,9,800.0,75.0,75.00000296775872
20402,true,0.19485424330055423,9,800.0,75.0,75.0000020774311
20433,true,0.298060376010298,9,800.0,75.0,75.00000145420177
20467,true,0.40063069226698644,9,800.0,75.0,75.00000101794123
20501,true,0.501044386206118,9,800.0,75.0,75.00000071255886
20534,true,0.5929826610992279,9,800.0,75.0,75.0000004987912
20567,true,0.6723581447487419,9,800.0,75.0,75.00000034915384
20606,true,0.7362270631997774,9,800.0,75.0,75.00000024440769
20672,true,0.8056323910324039,9,800.0,75.0,75.00000017108538
20707,true,0.8503779676994725,9,800.0,75.0,75.00000011975976
20740,true,0.8035039514723223,8,833.3333333333334,72.0,75.00000008383182
20768,true,0.6294695873558425,8,833.3333333333334,72.0,74.10000005868227
20797,true,0.37515883398087624,8,833.3333333333334,72.0,73.47000004107758
20834,true,0.07477401455811616,8,833.3333333333334,72.0,73.0290000287543
20868,true,-0.2003307964872647,8,833.3333333333334,72.0,72.72030002012801
20902,true,-0.3722990514512503,8,833.3333333333334,72.0,72.5042100140896
20932,true,-0.4120254945091091,8,833.3333333333334,72.0,72.35294700986272
20977,true,-0.37632952150426036,8,833.3333333333334,72.0,72.24706290690389
21001,true,-0.32054079549463665,8,833.3333333333334,72.0,72.17294403483272
21033,true,-0.3058361672486285,8,833.3333333333334,72.0,72.12106082438291
21070,true,-0.3207127493694628,8,833.3333333333334,72.0,72.08474257706803
21101,true,-0.3492576559934122,8,833.3333333333334,72.0,72.05931980394762
21180,true,-0.35768029498403564,8,833.3333333333334,72.0,72.04152386276333
21199,true,-0.3425314502111547,8,833.3333333333334,72.0,72.02906670393432
21235,true,-0.28274511300928395,8,833.3333333333334,72.0,72.02034669275402
21272,true,-0.19342515976140362,8,833.3333333333334,72.0,72.01424268492781
21302,true,-0.0933361163331341,8,833.3333333333334,72.0,72.00996987944946
21332,true,-0.004967174166395694,8,833.3333333333334,72.0,72.00697891561461
21366,true,0.08042300271743841,8,833.3333333333334,72.0,72.00488524093022
21400,true,0.155083456357886,8,833.3333333333334,72.0,72.00341966865115
21434,true,0.2198455551925349,8,833.3333333333334,72.0,72.0023937680558
21467,true,0.2856872398532886,8,833.3333333333334,72.0,72.00167563763905
21501,true,0.3434388605968195,8,833.3333333333334,72.0,72.00117294634734
21532,true,0.31175604934625767,9,833.3333333333334,72.0,72.00082106244314
21571,true,0.16412933759740156,9,833.3333333333334,72.0,72.00057474371019
21601,true,-0.07351474056733309,9,833.3333333333334,72.0,72.00040232059713
21645,true,-0.345438482625795,9,833.3333333333334,72.0,72.000281624418
21670,true,-0.6064993327991743,11,833.3333333333334,72.0,72.00019713709258
21701,true,-0.7719664456041926,11,833.3333333333334,72.0,72.0001379959648
21732,true,-0.8178640484174196,11,833.3333333333334,72.0,72.00009659717536
21773,true,-0.7762230434523758,11,833.3333333333334,72.0,72.00006761802274
21801,true,-0.7086341341726978,11,833.3333333333334,72.0,72.0000473326159
21839,true,-0.6614276017577083,11,833.3333333333334,72.0,72.00003313283113
21866,true,-0.6520457098955035,11,833.3333333333334,72.0,72.00002319298179